# onset,offset,note,velocity
0.514998	3.245985	44.000000	79.000000
0.518994	3.248975	56.000000	79.000000
3.248975	3.419993	37.000000	75.000000
3.252985	3.420985	49.000000	75.000000
3.423990	3.549986	56.000000	60.000000
3.549986	3.671987	61.000000	64.000000
3.672993	3.790996	64.000000	65.000000
3.794993	3.914003	61.000000	62.000000
3.917999	4.028989	56.000000	61.000000
4.032986	4.151995	49.000000	57.000000
4.154986	4.268001	56.000000	58.000000
4.270991	4.390001	61.000000	60.000000
4.392992	4.505001	64.000000	60.000000
4.508997	4.624011	61.000000	58.000000
4.625003	4.740016	56.000000	57.000000
4.741009	4.856022	49.000000	53.000000
4.856022	4.977016	56.000000	54.000000
4.978022	5.093022	61.000000	55.000000
5.094028	5.209028	64.000000	54.000000
5.209028	5.324041	61.000000	52.000000
5.325033	5.440033	56.000000	50.000000
5.443037	5.563039	49.000000	45.000000
5.563039	5.685040	56.000000	47.000000
5.686045	5.807040	61.000000	49.000000
5.807040	5.929054	64.000000	46.000000
5.930046	6.059047	61.000000	43.000000
6.063044	6.207051	56.000000	38.000000
6.207051	6.322038	49.000000	27.000000
6.297040	6.381046	68.000000	37.000000
6.325042	6.437051	56.000000	30.000000
6.382039	6.469050	69.000000	41.000000
6.441048	6.559051	61.000000	33.000000
6.469050	6.563048	68.000000	38.000000
6.564054	6.651051	67.000000	39.000000
6.564054	6.679053	64.000000	36.000000
6.652057	6.735058	68.000000	40.000000
6.680059	6.794053	61.000000	34.000000
6.735058	6.823061	73.000000	42.000000
6.794053	6.913063	56.000000	32.000000
6.823061	6.917059	76.000000	43.000000
6.920064	7.004057	75.000000	45.000000
6.921056	7.032059	52.000000	31.000000
7.005049	7.088050	73.000000	43.000000
7.033052	7.148065	56.000000	33.000000
7.088050	7.176054	75.000000	45.000000
7.148065	7.270065	61.000000	36.000000
7.179058	7.273056	73.000000	43.000000
7.274062	7.358069	72.000000	44.000000
7.274062	7.386071	64.000000	37.000000
7.359061	7.442075	73.000000	46.000000
7.386071	7.501071	61.000000	34.000000
7.445066	7.529073	76.000000	49.000000
7.502076	7.634068	56.000000	32.000000
7.533069	7.635074	80.000000	47.000000
7.638065	7.767065	49.000000	32.000000
7.739063	7.827067	68.000000	45.000000
7.771062	7.886075	56.000000	36.000000
7.827067	7.914077	69.000000	49.000000
7.887068	8.002081	61.000000	40.000000
7.915070	8.003073	68.000000	45.000000
8.003073	8.089078	67.000000	46.000000
8.005071	8.125074	64.000000	43.000000
8.089078	8.180086	68.000000	48.000000
8.125074	8.239081	61.000000	41.000000
8.181078	8.268089	73.000000	50.000000
8.240087	8.355087	56.000000	39.000000
8.271080	8.356092	76.000000	51.000000
8.356092	8.443076	75.000000	54.000000
8.359083	8.478079	52.000000	37.000000
8.443076	8.534084	73.000000	51.000000
8.478079	8.593079	56.000000	39.000000
8.534084	8.621081	75.000000	53.000000
8.594085	8.716085	61.000000	43.000000
8.625078	8.716085	73.000000	51.000000
8.717078	8.797075	72.000000	52.000000
8.719076	8.831072	64.000000	44.000000
8.797075	8.887076	73.000000	54.000000
8.832077	8.947077	61.000000	41.000000
8.891073	8.978084	76.000000	57.000000
8.948083	9.080075	56.000000	38.000000
8.979076	9.084071	80.000000	55.000000
9.084071	9.216090	51.000000	37.000000
9.184091	9.272094	69.000000	55.000000
9.217082	9.332095	57.000000	42.000000
9.273087	9.360097	73.000000	55.000000
9.332095	9.455088	61.000000	47.000000
9.360097	9.455088	75.000000	58.000000
9.455088	9.538102	78.000000	61.000000
9.456094	9.570101	66.000000	53.000000
9.539095	9.633106	81.000000	64.000000
9.571094	9.692102	61.000000	47.000000
9.634099	9.721110	85.000000	67.000000
9.692102	9.807101	57.000000	44.000000
9.721110	9.808107	87.000000	70.000000
9.808107	9.895105	95.000000	74.000000
9.812104	9.923107	54.000000	44.000000
9.896110	9.979111	93.000000	72.000000
9.924113	10.046113	61.000000	48.000000
9.983108	10.074115	92.000000	71.000000
10.046113	10.161113	63.000000	52.000000
10.074115	10.162119	90.000000	70.000000
10.162119	10.249116	88.000000	69.000000
10.164117	10.277119	69.000000	55.000000
10.250122	10.333123	87.000000	68.000000
10.278124	10.393124	63.000000	52.000000
10.336127	10.420134	90.000000	67.000000
10.393124	10.514132	61.000000	49.000000
10.421126	10.515138	85.000000	66.000000
10.515138	10.602135	84.000000	68.000000
10.518129	10.630138	44.000000	39.000000
10.602135	10.690139	87.000000	63.000000
10.634134	10.746143	51.000000	42.000000
10.690139	10.778142	81.000000	63.000000
10.746143	10.861143	54.000000	45.000000
10.778142	10.865140	80.000000	63.000000
10.866145	10.952151	78.000000	60.000000
10.866145	10.977149	60.000000	46.000000
10.953143	11.044150	81.000000	58.000000
10.980153	11.096158	54.000000	43.000000
11.044150	11.130155	76.000000	54.000000
11.096158	11.215155	51.000000	40.000000
11.131148	11.219151	75.000000	54.000000
11.219151	11.306162	78.000000	53.000000
11.222155	11.334164	44.000000	35.000000
11.306162	11.390169	73.000000	48.000000
11.334164	11.450170	51.000000	37.000000
11.390169	11.477166	72.000000	48.000000
11.450170	11.572170	54.000000	39.000000
11.481163	11.573163	75.000000	47.000000
11.573163	11.667174	69.000000	45.000000
11.575174	11.695177	60.000000	39.000000
11.667174	11.751181	68.000000	42.000000
11.695177	11.820168	54.000000	35.000000
11.751181	11.852166	71.000000	42.000000
11.821173	11.964162	51.000000	31.000000
11.853172	12.052152	69.000000	41.000000
11.967166	12.082152	49.000000	27.000000
12.055156	12.138157	68.000000	37.000000
12.083158	12.198158	56.000000	30.000000
12.143159	12.226160	69.000000	41.000000
12.199164	12.318160	61.000000	33.000000
12.226160	12.321164	68.000000	38.000000
12.321164	12.404152	67.000000	39.000000
12.325161	12.436151	64.000000	36.000000
12.409154	12.496152	68.000000	40.000000
12.437156	12.559157	61.000000	34.000000
12.497158	12.587159	73.000000	42.000000
12.559157	12.674157	56.000000	32.000000
12.587159	12.675162	76.000000	43.000000
12.675162	12.761154	75.000000	45.000000
12.678167	12.789156	52.000000	31.000000
12.762147	12.849157	73.000000	43.000000
12.793153	12.912163	56.000000	33.000000
12.850150	12.940151	75.000000	45.000000
12.912163	13.028155	61.000000	36.000000
12.941157	13.032165	73.000000	43.000000
13.032165	13.115166	72.000000	44.000000
13.033157	13.143168	64.000000	37.000000
13.116158	13.203169	73.000000	46.000000
13.148170	13.266174	61.000000	34.000000
13.204161	13.287176	76.000000	49.000000
13.269165	13.398166	56.000000	32.000000
13.291172	13.403168	80.000000	47.000000
13.403168	13.528159	49.000000	32.000000
13.497166	13.591164	68.000000	45.000000
13.529165	13.648175	56.000000	36.000000
13.591164	13.679168	70.000000	49.000000
13.651165	13.762169	58.000000	40.000000
13.679168	13.767171	68.000000	45.000000
13.767171	13.857173	67.000000	46.000000
13.770175	13.889171	64.000000	43.000000
13.861169	13.945176	68.000000	48.000000
13.889171	14.001180	58.000000	41.000000
13.945176	14.033179	73.000000	50.000000
14.005177	14.120190	56.000000	39.000000
14.033179	14.121183	76.000000	51.000000
14.123181	14.214188	75.000000	54.000000
14.124187	14.239186	52.000000	37.000000
14.215181	14.299187	73.000000	51.000000
14.242190	14.357190	56.000000	39.000000
14.299187	14.385193	75.000000	53.000000
14.358196	14.473196	58.000000	43.000000
14.386198	14.477192	73.000000	51.000000
14.478198	14.568200	72.000000	52.000000
14.478198	14.596202	61.000000	44.000000
14.568200	14.652207	73.000000	54.000000
14.596202	14.711202	58.000000	41.000000
14.652207	14.739204	76.000000	57.000000
14.712208	14.848196	56.000000	38.000000
14.743201	14.849202	80.000000	55.000000
14.849202	14.950200	75.000000	64.000000
14.849202	14.978202	51.000000	36.000000
14.950200	15.036205	76.000000	58.000000
14.981193	15.100203	56.000000	40.000000
15.037198	15.131196	75.000000	61.000000
15.101195	15.215203	59.000000	44.000000
15.132202	15.219199	74.000000	50.000000
15.219199	15.310207	75.000000	56.000000
15.220205	15.338209	63.000000	47.000000
15.310207	15.397204	83.000000	68.000000
15.338209	15.453209	59.000000	45.000000
15.398210	15.485207	82.000000	62.000000
15.457219	15.576215	56.000000	42.000000
15.486213	15.576215	80.000000	65.000000
15.580211	15.664218	79.000000	69.000000
15.581217	15.691215	51.000000	45.000000
15.667222	15.751229	88.000000	73.000000
15.694219	15.807220	58.000000	49.000000
15.752221	15.838227	87.000000	72.000000
15.810224	15.926230	61.000000	53.000000
15.838227	15.926230	85.000000	72.000000
15.927236	16.013227	83.000000	75.000000
15.930226	16.041230	67.000000	55.000000
16.014233	16.104235	82.000000	69.000000
16.042236	16.164236	61.000000	52.000000
16.105241	16.192238	80.000000	68.000000
16.164236	16.279236	58.000000	49.000000
16.192238	16.280241	79.000000	68.000000
16.280241	16.367226	82.000000	72.000000
16.283246	16.395228	44.000000	39.000000
16.368231	16.451232	80.000000	70.000000
16.396234	16.514238	51.000000	42.000000
16.454236	16.542240	83.000000	64.000000
16.514238	16.633247	56.000000	44.000000
16.542240	16.633247	74.000000	57.000000
16.633247	16.720245	76.000000	65.000000
16.637244	16.748247	59.000000	47.000000
16.721251	16.808248	75.000000	57.000000
16.749239	16.864253	56.000000	46.000000
16.808248	16.896251	80.000000	63.000000
16.864253	16.979252	51.000000	44.000000
16.896251	16.982256	70.000000	57.000000
16.983249	17.067242	73.000000	61.000000
16.987259	17.098249	44.000000	39.000000
17.070246	17.161240	71.000000	59.000000
17.099241	17.218251	51.000000	42.000000
17.165250	17.249244	75.000000	58.000000
17.221255	17.333251	56.000000	45.000000
17.249244	17.337247	67.000000	56.000000
17.340251	17.427262	70.000000	60.000000
17.341257	17.459261	59.000000	46.000000
17.431259	17.522253	68.000000	51.000000
17.460253	17.585258	56.000000	42.000000
17.522253	17.619255	67.000000	55.000000
17.585258	17.718255	51.000000	39.000000
17.620261	17.719248	68.000000	50.000000
17.721259	17.830264	68.000000	72.000000
17.722252	17.858267	45.000000	46.000000
17.830264	17.928259	80.000000	58.000000
17.858267	17.998251	49.000000	49.000000
17.928259	18.033254	72.000000	59.000000
17.999257	18.138249	54.000000	51.000000
18.034260	18.138249	73.000000	59.000000
18.139255	18.236257	66.000000	71.000000
18.142246	18.270254	57.000000	53.000000
18.236257	18.334252	78.000000	60.000000
18.271247	18.404244	54.000000	52.000000
18.335244	18.439247	72.000000	60.000000
18.405250	18.537241	49.000000	50.000000
18.439247	18.537241	73.000000	61.000000
18.538247	18.642237	65.000000	75.000000
18.541238	18.670239	45.000000	50.000000
18.643242	18.740244	77.000000	62.000000
18.671245	18.810237	49.000000	52.000000
18.741237	18.842236	72.000000	63.000000
18.810237	18.942242	54.000000	54.000000
18.842236	18.947231	73.000000	63.000000
18.947231	19.041229	66.000000	74.000000
18.948237	19.076232	57.000000	54.000000
19.044233	19.146224	78.000000	65.000000
19.076232	19.216230	54.000000	53.000000
19.146224	19.250227	72.000000	64.000000
19.216230	19.356228	49.000000	52.000000
19.251232	19.357220	73.000000	64.000000
19.359218	19.454222	61.000000	77.000000
19.360224	19.489225	47.000000	52.000000
19.454222	19.558211	73.000000	65.000000
19.489225	19.622222	54.000000	55.000000
19.559217	19.657212	66.000000	65.000000
19.623215	19.762207	57.000000	57.000000
19.660216	19.766217	69.000000	65.000000
19.766217	19.860215	63.000000	75.000000
19.767209	19.894212	59.000000	58.000000
19.860215	19.958210	75.000000	65.000000
19.895204	20.028202	57.000000	56.000000
19.959215	20.063205	66.000000	65.000000
20.029208	20.160207	54.000000	54.000000
20.066209	20.165209	69.000000	65.000000
20.165209	20.259207	64.000000	79.000000
20.168200	20.297201	40.000000	53.000000
20.262198	20.367193	76.000000	66.000000
20.298207	20.431204	47.000000	55.000000
20.367193	20.466193	68.000000	66.000000
20.431204	20.567192	52.000000	57.000000
20.466193	20.570196	71.000000	66.000000
20.571189	20.668191	68.000000	77.000000
20.574193	20.703194	56.000000	56.000000
20.669197	20.774192	80.000000	67.000000
20.703194	20.839195	52.000000	55.000000
20.774192	20.874185	71.000000	66.000000
20.840188	20.976189	47.000000	53.000000
20.879187	20.977181	76.000000	65.000000
20.977181	21.082177	68.000000	81.000000
20.980186	21.113183	45.000000	52.000000
21.082177	21.179179	80.000000	65.000000
21.117179	21.249171	49.000000	55.000000
21.180185	21.281183	72.000000	65.000000
21.250177	21.383174	54.000000	57.000000
21.284174	21.383174	73.000000	65.000000
21.384180	21.487177	66.000000	78.000000
21.386178	21.518170	57.000000	58.000000
21.488169	21.585172	78.000000	65.000000
21.523172	21.655164	54.000000	56.000000
21.586164	21.690167	72.000000	65.000000
21.656170	21.789167	49.000000	54.000000
21.694163	21.789167	73.000000	65.000000
21.790160	21.886169	65.000000	79.000000
21.792158	21.921159	45.000000	53.000000
21.887162	21.991164	77.000000	66.000000
21.922165	22.055162	49.000000	55.000000
21.995161	22.090165	72.000000	66.000000
22.055162	22.187154	54.000000	57.000000
22.090165	22.191150	73.000000	66.000000
22.192156	22.292149	66.000000	77.000000
22.192156	22.327152	57.000000	56.000000
22.293155	22.394153	78.000000	67.000000
22.331148	22.461155	54.000000	55.000000
22.394153	22.495152	72.000000	66.000000
22.461155	22.600147	49.000000	53.000000
22.498142	22.601139	73.000000	65.000000
22.601139	22.706148	65.000000	81.000000
22.604143	22.741137	47.000000	52.000000
22.706148	22.810137	77.000000	65.000000
22.741137	22.873142	51.000000	55.000000
22.811143	22.908132	71.000000	65.000000
22.874135	23.014133	57.000000	57.000000
22.909138	23.014133	75.000000	65.000000
23.015139	23.114126	66.000000	78.000000
23.017137	23.154131	59.000000	58.000000
23.119128	23.227127	78.000000	65.000000
23.154131	23.297119	57.000000	56.000000
23.230118	23.339123	71.000000	65.000000
23.300123	23.447109	51.000000	54.000000
23.339123	23.448114	75.000000	65.000000
23.451105	23.559104	69.000000	79.000000
23.451105	23.594107	40.000000	53.000000
23.560110	23.665105	81.000000	66.000000
23.595100	23.731101	47.000000	55.000000
23.665105	23.765098	71.000000	66.000000
23.735098	23.878086	52.000000	57.000000
23.766104	23.879092	76.000000	66.000000
23.881090	23.983081	68.000000	77.000000
23.882083	24.018084	56.000000	56.000000
23.983081	24.091081	80.000000	67.000000
24.018084	24.162079	52.000000	55.000000
24.092086	24.203076	71.000000	66.000000
24.162079	24.309077	47.000000	53.000000
24.204069	24.309077	76.000000	65.000000
24.310070	24.413067	68.000000	52.000000
24.312068	24.444073	45.000000	36.000000
24.414072	24.511061	80.000000	57.000000
24.449062	24.581067	49.000000	39.000000
24.512067	24.613066	72.000000	47.000000
24.582059	24.718061	54.000000	40.000000
24.616056	24.718061	73.000000	47.000000
24.722057	24.819059	66.000000	49.000000
24.722057	24.847062	57.000000	42.000000
24.820052	24.917054	78.000000	54.000000
24.848054	24.988052	54.000000	41.000000
24.917054	25.016054	72.000000	48.000000
24.988052	25.120057	49.000000	40.000000
25.016054	25.121050	73.000000	48.000000
25.121050	25.218052	65.000000	51.000000
25.125046	25.253055	45.000000	40.000000
25.219044	25.317052	77.000000	56.000000
25.253055	25.386052	49.000000	41.000000
25.320043	25.422047	72.000000	50.000000
25.390048	25.519049	54.000000	43.000000
25.422047	25.520042	73.000000	50.000000
25.523046	25.625037	66.000000	53.000000
25.524038	25.653039	57.000000	43.000000
25.628041	25.723045	78.000000	58.000000
25.656043	25.792031	54.000000	42.000000
25.726036	25.827034	72.000000	51.000000
25.793037	25.933035	49.000000	41.000000
25.828040	25.933035	73.000000	51.000000
25.934028	26.038030	61.000000	55.000000
25.936026	26.073020	47.000000	41.000000
26.038030	26.135032	73.000000	60.000000
26.073020	26.205025	54.000000	44.000000
26.136025	26.233027	66.000000	52.000000
26.206031	26.339028	57.000000	45.000000
26.234019	26.342019	69.000000	53.000000
26.342019	26.436017	63.000000	55.000000
26.343025	26.471020	59.000000	47.000000
26.441019	26.541012	75.000000	62.000000
26.472025	26.605023	57.000000	45.000000
26.542018	26.642011	66.000000	54.000000
26.608014	26.741011	54.000000	45.000000
26.643016	26.742017	69.000000	54.000000
26.742017	26.842023	64.000000	57.000000
26.744015	26.874022	40.000000	44.000000
26.847025	26.944027	76.000000	65.000000
26.874022	27.010023	47.000000	47.000000
26.944027	27.046019	68.000000	56.000000
27.014020	27.147017	52.000000	48.000000
27.046019	27.148023	71.000000	56.000000
27.148023	27.245012	68.000000	60.000000
27.150021	27.280015	56.000000	48.000000
27.245012	27.347016	80.000000	68.000000
27.280015	27.416016	52.000000	48.000000
27.350007	27.455002	71.000000	57.000000
27.421005	27.557007	47.000000	47.000000
27.456008	27.560011	76.000000	58.000000
27.561003	27.658005	68.000000	62.000000
27.564007	27.693008	45.000000	46.000000
27.658005	27.763000	80.000000	68.000000
27.694000	27.828996	49.000000	50.000000
27.763993	27.864991	72.000000	59.000000
27.830002	27.962999	54.000000	51.000000
27.867995	27.965990	73.000000	59.000000
27.965990	28.060002	66.000000	62.000000
27.969987	28.098987	57.000000	53.000000
28.064990	28.168993	78.000000	70.000000
28.099993	28.231985	54.000000	51.000000
28.169986	28.266988	72.000000	61.000000
28.231985	28.364982	49.000000	50.000000
28.266988	28.365988	73.000000	61.000000
28.368992	28.469991	75.000000	64.000000
28.368992	28.504994	45.000000	50.000000
28.470997	28.567999	87.000000	73.000000
28.504994	28.637991	51.000000	52.000000
28.567999	28.668997	78.000000	62.000000
28.637991	28.770989	54.000000	54.000000
28.669990	28.773993	81.000000	62.000000
28.773993	28.875984	73.000000	66.000000
28.774985	28.910987	57.000000	52.000000
28.875984	28.976982	85.000000	74.000000
28.910987	29.043984	54.000000	52.000000
28.977988	29.078987	78.000000	62.000000
29.044990	29.183982	51.000000	50.000000
29.079979	29.183982	81.000000	62.000000
29.184974	29.288990	73.000000	64.000000
29.187978	29.316993	44.000000	50.000000
29.288990	29.386985	85.000000	73.000000
29.319983	29.456991	51.000000	52.000000
29.387991	29.491980	75.000000	61.000000
29.457983	29.589988	54.000000	53.000000
29.491980	29.589988	78.000000	61.000000
29.590981	29.694997	72.000000	64.000000
29.593985	29.725990	60.000000	50.000000
29.695989	29.792991	84.000000	71.000000
29.729986	29.862984	54.000000	50.000000
29.792991	29.897986	75.000000	60.000000
29.862984	29.995981	51.000000	48.000000
29.901983	29.996987	78.000000	59.000000
29.996987	30.093989	72.000000	60.000000
29.999991	30.128978	44.000000	47.000000
30.093989	30.195980	84.000000	69.000000
30.132988	30.264980	51.000000	49.000000
30.195980	30.296979	75.000000	58.000000
30.265986	30.394973	54.000000	50.000000
30.299983	30.397977	78.000000	58.000000
30.397977	30.503978	72.000000	61.000000
30.398983	30.534971	60.000000	48.000000
30.503978	30.601973	84.000000	68.000000
30.538968	30.670973	54.000000	47.000000
30.601973	30.702972	75.000000	57.000000
30.671965	30.811963	51.000000	45.000000
30.705976	30.811963	78.000000	56.000000
30.812969	30.909958	72.000000	57.000000
30.812969	30.940964	45.000000	45.000000
30.909958	31.010956	84.000000	65.000000
30.943968	31.080962	51.000000	46.000000
31.013960	31.115952	75.000000	55.000000
31.083953	31.216950	54.000000	48.000000
31.115952	31.217956	78.000000	55.000000
31.217956	31.321945	71.000000	58.000000
31.218948	31.346957	59.000000	45.000000
31.322951	31.416949	83.000000	64.000000
31.349948	31.486955	54.000000	45.000000
31.419953	31.518954	75.000000	53.000000
31.490951	31.622943	51.000000	43.000000
31.518954	31.623949	78.000000	53.000000
31.623949	31.720964	71.000000	54.000000
31.626939	31.756960	46.000000	42.000000
31.721957	31.819951	83.000000	62.000000
31.757952	31.889957	51.000000	44.000000
31.819951	31.923954	75.000000	52.000000
31.889957	32.021949	54.000000	45.000000
31.924947	32.022955	78.000000	52.000000
32.022955	32.120962	70.000000	54.000000
32.025945	32.155965	58.000000	43.000000
32.120962	32.225958	82.000000	60.000000
32.155965	32.294957	54.000000	42.000000
32.225958	32.329960	75.000000	50.000000
32.295963	32.428961	51.000000	40.000000
32.330953	32.428961	78.000000	50.000000
32.429953	32.533969	70.000000	55.000000
32.431951	32.567966	48.000000	40.000000
32.539964	32.644959	82.000000	49.000000
32.568959	32.704960	51.000000	41.000000
32.637959	32.736959	75.000000	48.000000
32.704960	32.841954	54.000000	42.000000
